# time [s] 	amplitude [arb. u.]       amplitude error [arb. u.]
0.000000000000000000e+00 8.879999999999999716e+01 5.000000000000000278e-02
5.000000000000000000e+00 8.850000000000000000e+01 5.000000000000000278e-02
1.000000000000000000e+01 8.850000000000000000e+01 5.000000000000000278e-02
1.500000000000000000e+01 8.879999999999999716e+01 5.000000000000000278e-02
2.000000000000000000e+01 8.900000000000000000e+01 5.000000000000000278e-02
2.500000000000000000e+01 8.920000000000000284e+01 5.000000000000000278e-02
3.000000000000000000e+01 8.950000000000000000e+01 5.000000000000000278e-02
3.500000000000000000e+01 8.979999999999999716e+01 5.000000000000000278e-02
4.000000000000000000e+01 9.000000000000000000e+01 5.000000000000000278e-02
4.500000000000000000e+01 9.020000000000000284e+01 5.000000000000000278e-02
5.000000000000000000e+01 9.040000000000000568e+01 5.000000000000000278e-02
5.500000000000000000e+01 9.059999999999999432e+01 5.000000000000000278e-02
6.000000000000000000e+01 9.100000000000000000e+01 5.000000000000000278e-02
6.500000000000000000e+01 9.140000000000000568e+01 5.000000000000000278e-02
7.000000000000000000e+01 9.179999999999999716e+01 5.000000000000000278e-02
7.500000000000000000e+01 9.240000000000000568e+01 5.000000000000000278e-02
8.000000000000000000e+01 9.259999999999999432e+01 5.000000000000000278e-02
8.500000000000000000e+01 9.300000000000000000e+01 5.000000000000000278e-02
9.000000000000000000e+01 9.340000000000000568e+01 5.000000000000000278e-02
9.500000000000000000e+01 9.379999999999999716e+01 5.000000000000000278e-02
1.000000000000000000e+02 9.440000000000000568e+01 5.000000000000000278e-02
1.050000000000000000e+02 9.450000000000000000e+01 5.000000000000000278e-02
1.100000000000000000e+02 9.459999999999999432e+01 5.000000000000000278e-02
1.150000000000000000e+02 9.479999999999999716e+01 5.000000000000000278e-02
1.200000000000000000e+02 9.490000000000000568e+01 5.000000000000000278e-02
1.250000000000000000e+02 9.500000000000000000e+01 5.000000000000000278e-02
1.300000000000000000e+02 9.509999999999999432e+01 5.000000000000000278e-02
1.350000000000000000e+02 9.520000000000000284e+01 5.000000000000000278e-02
1.400000000000000000e+02 9.529999999999999716e+01 5.000000000000000278e-02
1.450000000000000000e+02 9.540000000000000568e+01 5.000000000000000278e-02
1.500000000000000000e+02 9.550000000000000000e+01 5.000000000000000278e-02
1.550000000000000000e+02 9.550000000000000000e+01 5.000000000000000278e-02
1.600000000000000000e+02 9.550000000000000000e+01 5.000000000000000278e-02
1.650000000000000000e+02 9.540000000000000568e+01 5.000000000000000278e-02
1.700000000000000000e+02 9.529999999999999716e+01 5.000000000000000278e-02
1.750000000000000000e+02 9.509999999999999432e+01 5.000000000000000278e-02
1.800000000000000000e+02 9.479999999999999716e+01 5.000000000000000278e-02
1.850000000000000000e+02 9.450000000000000000e+01 5.000000000000000278e-02
1.900000000000000000e+02 9.420000000000000284e+01 5.000000000000000278e-02
1.950000000000000000e+02 9.370000000000000284e+01 5.000000000000000278e-02
2.000000000000000000e+02 9.350000000000000000e+01 5.000000000000000278e-02
2.050000000000000000e+02 9.320000000000000284e+01 5.000000000000000278e-02
2.100000000000000000e+02 9.300000000000000000e+01 5.000000000000000278e-02
2.150000000000000000e+02 9.259999999999999432e+01 5.000000000000000278e-02
2.200000000000000000e+02 9.240000000000000568e+01 5.000000000000000278e-02
2.250000000000000000e+02 9.220000000000000284e+01 5.000000000000000278e-02
2.300000000000000000e+02 9.200000000000000000e+01 5.000000000000000278e-02
2.350000000000000000e+02 9.159999999999999432e+01 5.000000000000000278e-02
2.400000000000000000e+02 9.140000000000000568e+01 5.000000000000000278e-02
2.450000000000000000e+02 9.120000000000000284e+01 5.000000000000000278e-02
2.500000000000000000e+02 9.079999999999999716e+01 5.000000000000000278e-02
2.550000000000000000e+02 9.050000000000000000e+01 5.000000000000000278e-02
2.600000000000000000e+02 9.029999999999999716e+01 5.000000000000000278e-02
2.650000000000000000e+02 9.000000000000000000e+01 5.000000000000000278e-02
2.700000000000000000e+02 8.990000000000000568e+01 5.000000000000000278e-02
2.750000000000000000e+02 8.979999999999999716e+01 5.000000000000000278e-02
2.800000000000000000e+02 8.970000000000000284e+01 5.000000000000000278e-02
2.850000000000000000e+02 8.979999999999999716e+01 5.000000000000000278e-02
2.900000000000000000e+02 8.990000000000000568e+01 5.000000000000000278e-02
2.950000000000000000e+02 8.990000000000000568e+01 5.000000000000000278e-02
3.000000000000000000e+02 9.000000000000000000e+01 5.000000000000000278e-02
3.050000000000000000e+02 9.009999999999999432e+01 5.000000000000000278e-02
3.100000000000000000e+02 9.020000000000000284e+01 5.000000000000000278e-02
3.150000000000000000e+02 9.040000000000000568e+01 5.000000000000000278e-02
3.200000000000000000e+02 9.050000000000000000e+01 5.000000000000000278e-02
3.250000000000000000e+02 9.059999999999999432e+01 5.000000000000000278e-02
3.300000000000000000e+02 9.079999999999999716e+01 5.000000000000000278e-02
3.350000000000000000e+02 9.100000000000000000e+01 5.000000000000000278e-02
3.400000000000000000e+02 9.120000000000000284e+01 5.000000000000000278e-02
3.450000000000000000e+02 9.150000000000000000e+01 5.000000000000000278e-02
3.500000000000000000e+02 9.179999999999999716e+01 5.000000000000000278e-02
3.550000000000000000e+02 9.220000000000000284e+01 5.000000000000000278e-02
3.600000000000000000e+02 9.250000000000000000e+01 5.000000000000000278e-02
3.650000000000000000e+02 9.279999999999999716e+01 5.000000000000000278e-02
3.700000000000000000e+02 9.300000000000000000e+01 5.000000000000000278e-02
3.750000000000000000e+02 9.329999999999999716e+01 5.000000000000000278e-02
3.800000000000000000e+02 9.359999999999999432e+01 5.000000000000000278e-02
3.850000000000000000e+02 9.379999999999999716e+01 5.000000000000000278e-02
3.900000000000000000e+02 9.400000000000000000e+01 5.000000000000000278e-02
3.950000000000000000e+02 9.409999999999999432e+01 5.000000000000000278e-02
4.000000000000000000e+02 9.429999999999999716e+01 5.000000000000000278e-02
4.050000000000000000e+02 9.440000000000000568e+01 5.000000000000000278e-02
4.100000000000000000e+02 9.459999999999999432e+01 5.000000000000000278e-02
4.150000000000000000e+02 9.479999999999999716e+01 5.000000000000000278e-02
4.200000000000000000e+02 9.490000000000000568e+01 5.000000000000000278e-02
4.250000000000000000e+02 9.500000000000000000e+01 5.000000000000000278e-02
4.300000000000000000e+02 9.500000000000000000e+01 5.000000000000000278e-02
4.350000000000000000e+02 9.509999999999999432e+01 5.000000000000000278e-02
4.400000000000000000e+02 9.509999999999999432e+01 5.000000000000000278e-02
4.450000000000000000e+02 9.500000000000000000e+01 5.000000000000000278e-02
4.500000000000000000e+02 9.490000000000000568e+01 5.000000000000000278e-02
4.550000000000000000e+02 9.479999999999999716e+01 5.000000000000000278e-02
4.600000000000000000e+02 9.459999999999999432e+01 5.000000000000000278e-02
4.650000000000000000e+02 9.450000000000000000e+01 5.000000000000000278e-02
4.700000000000000000e+02 9.429999999999999716e+01 5.000000000000000278e-02
4.750000000000000000e+02 9.400000000000000000e+01 5.000000000000000278e-02
4.800000000000000000e+02 9.390000000000000568e+01 5.000000000000000278e-02
4.850000000000000000e+02 9.359999999999999432e+01 5.000000000000000278e-02
4.900000000000000000e+02 9.340000000000000568e+01 5.000000000000000278e-02
4.950000000000000000e+02 9.320000000000000284e+01 5.000000000000000278e-02
5.000000000000000000e+02 9.300000000000000000e+01 5.000000000000000278e-02
5.050000000000000000e+02 9.279999999999999716e+01 5.000000000000000278e-02
5.100000000000000000e+02 9.250000000000000000e+01 5.000000000000000278e-02
5.150000000000000000e+02 9.220000000000000284e+01 5.000000000000000278e-02
5.200000000000000000e+02 9.200000000000000000e+01 5.000000000000000278e-02
5.250000000000000000e+02 9.179999999999999716e+01 5.000000000000000278e-02
5.300000000000000000e+02 9.159999999999999432e+01 5.000000000000000278e-02
5.350000000000000000e+02 9.140000000000000568e+01 5.000000000000000278e-02
5.400000000000000000e+02 9.120000000000000284e+01 5.000000000000000278e-02
5.450000000000000000e+02 9.100000000000000000e+01 5.000000000000000278e-02
5.500000000000000000e+02 9.090000000000000568e+01 5.000000000000000278e-02
5.550000000000000000e+02 9.079999999999999716e+01 5.000000000000000278e-02
5.600000000000000000e+02 9.070000000000000284e+01 5.000000000000000278e-02
5.650000000000000000e+02 9.059999999999999432e+01 5.000000000000000278e-02
5.700000000000000000e+02 9.059999999999999432e+01 5.000000000000000278e-02
5.750000000000000000e+02 9.059999999999999432e+01 5.000000000000000278e-02
5.800000000000000000e+02 9.059999999999999432e+01 5.000000000000000278e-02
5.850000000000000000e+02 9.059999999999999432e+01 5.000000000000000278e-02
5.900000000000000000e+02 9.070000000000000284e+01 5.000000000000000278e-02
5.950000000000000000e+02 9.079999999999999716e+01 5.000000000000000278e-02
6.000000000000000000e+02 9.090000000000000568e+01 5.000000000000000278e-02
6.150000000000000000e+02 9.120000000000000284e+01 5.000000000000000278e-02
6.300000000000000000e+02 9.190000000000000568e+01 5.000000000000000278e-02
6.450000000000000000e+02 9.250000000000000000e+01 5.000000000000000278e-02
6.600000000000000000e+02 9.309999999999999432e+01 5.000000000000000278e-02
6.750000000000000000e+02 9.359999999999999432e+01 5.000000000000000278e-02
6.900000000000000000e+02 9.420000000000000284e+01 5.000000000000000278e-02
7.050000000000000000e+02 9.450000000000000000e+01 5.000000000000000278e-02
7.200000000000000000e+02 9.459999999999999432e+01 5.000000000000000278e-02
7.350000000000000000e+02 9.450000000000000000e+01 5.000000000000000278e-02
7.500000000000000000e+02 9.429999999999999716e+01 5.000000000000000278e-02
7.650000000000000000e+02 9.379999999999999716e+01 5.000000000000000278e-02
7.800000000000000000e+02 9.340000000000000568e+01 5.000000000000000278e-02
7.950000000000000000e+02 9.270000000000000284e+01 5.000000000000000278e-02
8.100000000000000000e+02 9.229999999999999716e+01 5.000000000000000278e-02
8.250000000000000000e+02 9.179999999999999716e+01 5.000000000000000278e-02
8.400000000000000000e+02 9.150000000000000000e+01 5.000000000000000278e-02
8.550000000000000000e+02 9.129999999999999716e+01 5.000000000000000278e-02
8.700000000000000000e+02 9.140000000000000568e+01 5.000000000000000278e-02
8.850000000000000000e+02 9.150000000000000000e+01 5.000000000000000278e-02
9.000000000000000000e+02 9.179999999999999716e+01 5.000000000000000278e-02
9.150000000000000000e+02 9.220000000000000284e+01 5.000000000000000278e-02
9.300000000000000000e+02 9.259999999999999432e+01 5.000000000000000278e-02
9.450000000000000000e+02 9.309999999999999432e+01 5.000000000000000278e-02
9.600000000000000000e+02 9.359999999999999432e+01 5.000000000000000278e-02
9.750000000000000000e+02 9.390000000000000568e+01 5.000000000000000278e-02
9.900000000000000000e+02 9.400000000000000000e+01 5.000000000000000278e-02
1.005000000000000000e+03 9.420000000000000284e+01 5.000000000000000278e-02
1.020000000000000000e+03 9.409999999999999432e+01 5.000000000000000278e-02
1.035000000000000000e+03 9.390000000000000568e+01 5.000000000000000278e-02
1.050000000000000000e+03 9.359999999999999432e+01 5.000000000000000278e-02
1.065000000000000000e+03 9.329999999999999716e+01 5.000000000000000278e-02
1.080000000000000000e+03 9.290000000000000568e+01 5.000000000000000278e-02
1.095000000000000000e+03 9.250000000000000000e+01 5.000000000000000278e-02
1.110000000000000000e+03 9.209999999999999432e+01 5.000000000000000278e-02
1.125000000000000000e+03 9.190000000000000568e+01 5.000000000000000278e-02
1.140000000000000000e+03 9.179999999999999716e+01 5.000000000000000278e-02
1.155000000000000000e+03 9.190000000000000568e+01 5.000000000000000278e-02
1.170000000000000000e+03 9.200000000000000000e+01 5.000000000000000278e-02
1.185000000000000000e+03 9.240000000000000568e+01 5.000000000000000278e-02
1.200000000000000000e+03 9.259999999999999432e+01 5.000000000000000278e-02
1.215000000000000000e+03 9.300000000000000000e+01 5.000000000000000278e-02
1.230000000000000000e+03 9.340000000000000568e+01 5.000000000000000278e-02
1.245000000000000000e+03 9.359999999999999432e+01 5.000000000000000278e-02
1.260000000000000000e+03 9.379999999999999716e+01 5.000000000000000278e-02
1.275000000000000000e+03 9.390000000000000568e+01 5.000000000000000278e-02
1.290000000000000000e+03 9.379999999999999716e+01 5.000000000000000278e-02
1.305000000000000000e+03 9.370000000000000284e+01 5.000000000000000278e-02
1.320000000000000000e+03 9.350000000000000000e+01 5.000000000000000278e-02
1.335000000000000000e+03 9.329999999999999716e+01 5.000000000000000278e-02
1.350000000000000000e+03 9.320000000000000284e+01 5.000000000000000278e-02
1.365000000000000000e+03 9.290000000000000568e+01 5.000000000000000278e-02
1.380000000000000000e+03 9.279999999999999716e+01 5.000000000000000278e-02
1.395000000000000000e+03 9.250000000000000000e+01 5.000000000000000278e-02
1.410000000000000000e+03 9.229999999999999716e+01 5.000000000000000278e-02
1.425000000000000000e+03 9.220000000000000284e+01 5.000000000000000278e-02
1.440000000000000000e+03 9.209999999999999432e+01 5.000000000000000278e-02
1.455000000000000000e+03 9.220000000000000284e+01 5.000000000000000278e-02
1.470000000000000000e+03 9.240000000000000568e+01 5.000000000000000278e-02
1.485000000000000000e+03 9.250000000000000000e+01 5.000000000000000278e-02
1.500000000000000000e+03 9.279999999999999716e+01 5.000000000000000278e-02
1.515000000000000000e+03 9.300000000000000000e+01 5.000000000000000278e-02
1.530000000000000000e+03 9.320000000000000284e+01 5.000000000000000278e-02
1.545000000000000000e+03 9.340000000000000568e+01 5.000000000000000278e-02
1.560000000000000000e+03 9.359999999999999432e+01 5.000000000000000278e-02
1.575000000000000000e+03 9.370000000000000284e+01 5.000000000000000278e-02
1.590000000000000000e+03 9.350000000000000000e+01 5.000000000000000278e-02
1.605000000000000000e+03 9.340000000000000568e+01 5.000000000000000278e-02
1.620000000000000000e+03 9.329999999999999716e+01 5.000000000000000278e-02
1.635000000000000000e+03 9.309999999999999432e+01 5.000000000000000278e-02
1.650000000000000000e+03 9.290000000000000568e+01 5.000000000000000278e-02
1.665000000000000000e+03 9.270000000000000284e+01 5.000000000000000278e-02
1.680000000000000000e+03 9.250000000000000000e+01 5.000000000000000278e-02
1.695000000000000000e+03 9.240000000000000568e+01 5.000000000000000278e-02
1.710000000000000000e+03 9.229999999999999716e+01 5.000000000000000278e-02
1.725000000000000000e+03 9.240000000000000568e+01 5.000000000000000278e-02
1.740000000000000000e+03 9.240000000000000568e+01 5.000000000000000278e-02
1.755000000000000000e+03 9.250000000000000000e+01 5.000000000000000278e-02
1.770000000000000000e+03 9.259999999999999432e+01 5.000000000000000278e-02
1.785000000000000000e+03 9.279999999999999716e+01 5.000000000000000278e-02
1.800000000000000000e+03 9.300000000000000000e+01 5.000000000000000278e-02
1.815000000000000000e+03 9.309999999999999432e+01 5.000000000000000278e-02
1.830000000000000000e+03 9.329999999999999716e+01 5.000000000000000278e-02
1.845000000000000000e+03 9.340000000000000568e+01 5.000000000000000278e-02
1.860000000000000000e+03 9.340000000000000568e+01 5.000000000000000278e-02
1.875000000000000000e+03 9.350000000000000000e+01 5.000000000000000278e-02
1.890000000000000000e+03 9.340000000000000568e+01 5.000000000000000278e-02
1.905000000000000000e+03 9.329999999999999716e+01 5.000000000000000278e-02
1.920000000000000000e+03 9.309999999999999432e+01 5.000000000000000278e-02
1.935000000000000000e+03 9.290000000000000568e+01 5.000000000000000278e-02
1.950000000000000000e+03 9.279999999999999716e+01 5.000000000000000278e-02
1.965000000000000000e+03 9.259999999999999432e+01 5.000000000000000278e-02
1.980000000000000000e+03 9.250000000000000000e+01 5.000000000000000278e-02
1.995000000000000000e+03 9.250000000000000000e+01 5.000000000000000278e-02
2.010000000000000000e+03 9.240000000000000568e+01 5.000000000000000278e-02
2.025000000000000000e+03 9.259999999999999432e+01 5.000000000000000278e-02
2.040000000000000000e+03 9.270000000000000284e+01 5.000000000000000278e-02
2.055000000000000000e+03 9.290000000000000568e+01 5.000000000000000278e-02
2.070000000000000000e+03 9.300000000000000000e+01 5.000000000000000278e-02
2.085000000000000000e+03 9.309999999999999432e+01 5.000000000000000278e-02
2.100000000000000000e+03 9.320000000000000284e+01 5.000000000000000278e-02
2.115000000000000000e+03 9.340000000000000568e+01 5.000000000000000278e-02
2.130000000000000000e+03 9.340000000000000568e+01 5.000000000000000278e-02
2.145000000000000000e+03 9.340000000000000568e+01 5.000000000000000278e-02
2.160000000000000000e+03 9.329999999999999716e+01 5.000000000000000278e-02
2.175000000000000000e+03 9.320000000000000284e+01 5.000000000000000278e-02
2.190000000000000000e+03 9.309999999999999432e+01 5.000000000000000278e-02
2.205000000000000000e+03 9.300000000000000000e+01 5.000000000000000278e-02
2.220000000000000000e+03 9.290000000000000568e+01 5.000000000000000278e-02
2.235000000000000000e+03 9.270000000000000284e+01 5.000000000000000278e-02
2.250000000000000000e+03 9.270000000000000284e+01 5.000000000000000278e-02
2.265000000000000000e+03 9.259999999999999432e+01 5.000000000000000278e-02
2.280000000000000000e+03 9.270000000000000284e+01 5.000000000000000278e-02
2.295000000000000000e+03 9.279999999999999716e+01 5.000000000000000278e-02
2.310000000000000000e+03 9.279999999999999716e+01 5.000000000000000278e-02
2.325000000000000000e+03 9.290000000000000568e+01 5.000000000000000278e-02
2.340000000000000000e+03 9.300000000000000000e+01 5.000000000000000278e-02
2.355000000000000000e+03 9.309999999999999432e+01 5.000000000000000278e-02
2.370000000000000000e+03 9.329999999999999716e+01 5.000000000000000278e-02
2.385000000000000000e+03 9.340000000000000568e+01 5.000000000000000278e-02
2.400000000000000000e+03 9.340000000000000568e+01 5.000000000000000278e-02
2.415000000000000000e+03 9.350000000000000000e+01 5.000000000000000278e-02
2.430000000000000000e+03 9.350000000000000000e+01 5.000000000000000278e-02
2.445000000000000000e+03 9.350000000000000000e+01 5.000000000000000278e-02
2.460000000000000000e+03 9.340000000000000568e+01 5.000000000000000278e-02
2.475000000000000000e+03 9.340000000000000568e+01 5.000000000000000278e-02
2.490000000000000000e+03 9.329999999999999716e+01 5.000000000000000278e-02
2.505000000000000000e+03 9.309999999999999432e+01 5.000000000000000278e-02
2.520000000000000000e+03 9.300000000000000000e+01 5.000000000000000278e-02
2.535000000000000000e+03 9.300000000000000000e+01 5.000000000000000278e-02
2.550000000000000000e+03 9.290000000000000568e+01 5.000000000000000278e-02
2.565000000000000000e+03 9.290000000000000568e+01 5.000000000000000278e-02
2.580000000000000000e+03 9.290000000000000568e+01 5.000000000000000278e-02
2.595000000000000000e+03 9.300000000000000000e+01 5.000000000000000278e-02
2.610000000000000000e+03 9.300000000000000000e+01 5.000000000000000278e-02
2.625000000000000000e+03 9.300000000000000000e+01 5.000000000000000278e-02
2.640000000000000000e+03 9.309999999999999432e+01 5.000000000000000278e-02
2.655000000000000000e+03 9.320000000000000284e+01 5.000000000000000278e-02
2.670000000000000000e+03 9.329999999999999716e+01 5.000000000000000278e-02
2.685000000000000000e+03 9.340000000000000568e+01 5.000000000000000278e-02
2.700000000000000000e+03 9.350000000000000000e+01 5.000000000000000278e-02
